Point	Potential(mV)	Current(microAmp)
1	499.954044818878	163.152784807608
2	504.325568675995	166.306548635475
3	509.399592876434	168.867030879483
4	514.317572116852	170.709332451224
5	519.391655921936	171.98956629727
6	524.387657642365	172.832660609856
7	529.383659362793	173.332271515392
8	534.301578998566	173.519612872042
9	539.37566280365	173.425942193717
10	544.371664524078	173.082458786666
11	549.367666244507	172.520405612886
12	554.363667964935	171.77099653054
13	559.359669685364	170.834231539629
14	564.433753490448	169.835024280474
15	569.351732730865	168.679674970917
16	574.347734451294	167.430669534951
17	579.343736171722	166.087978868745
18	584.339737892151	164.651602972299
19	589.335739612579	163.152784807608
20	594.331741333008	161.653966642916
21	599.327743053436	160.123920068145
22	604.323744773865	158.562659635209
23	609.397828578949	156.970156240277
24	614.315748214722	155.377667397261
25	619.389832019806	153.785164002329
26	624.385833740234	152.223903569393
27	629.381835460663	150.631400174461
28	634.455919265747	149.070139741525
29	639.373898506165	147.540093166754
30	644.369900226593	146.010046591982
31	649.365901947021	144.511228427291
32	654.439985752106	143.04363867268
33	659.357905387878	141.607262776233
34	664.353907108307	140.170901431702
35	669.427990913391	138.765753945336
36	674.345910549164	137.42306327913
37	679.341912269592	136.080372612923
38	684.415996074677	134.737681946717
39	689.333915710449	133.457448100671
40	694.407999515533	132.20842811279
41	699.404001235962	130.959408124909
42	704.321980476379	129.772844957188
43	709.396064281464	128.586281789467
44	714.313983917236	127.399718621746
45	719.388067722321	126.30682613235
46	724.305987358093	125.213933642954
47	729.380071163177	124.121055705473
48	734.376072883606	123.059391626157
49	739.372074604034	122.060177091043
50	744.368076324463	121.06096255593
51	749.364078044891	120.061748020817
52	754.438161849976	119.093761895783
53	759.356081485748	118.156996904872
54	764.430165290833	117.251460324042
55	769.426167011261	116.377152153291
56	774.422168731689	115.440394438338
57	779.340147972107	114.597307401709
58	784.336149692535	113.754220365081
59	789.41023349762	112.942361738533
60	794.328153133392	112.161724246107
61	799.402236938477	111.318637209479
62	804.398238658905	110.569228127133
63	809.316158294678	109.819819044787
64	814.390242099762	109.070409962442
65	819.308221340179	108.321000880096
66	824.382245540619	107.634041341953
67	829.378247261047	106.915860669687
68	834.296226501465	106.228901131544
69	839.370310306549	105.573170003481
70	844.366312026978	104.917431599461
71	849.440395832062	104.261700471397
72	854.358315467834	103.605969343334
73	859.432399272919	103.012687759474
74	864.350318908691	102.419406175613
75	869.34632062912	101.826117315795
76	874.342322349548	101.201614597812
77	879.416406154633	100.639554148074
78	884.412407875061	100.077500974294
79	889.40840959549	99.515440524556
80	894.404411315918	98.984608484898
81	899.400413036346	98.422555311117
82	904.39647436142	97.891723271459
83	909.392476081848	97.423340776004
84	914.388477802277	96.892508736346
85	919.384479522705	96.424126240891
86	924.380481243134	95.924522611313
87	929.454565048218	95.456140115857
88	934.37248468399	94.987757620402
89	939.368486404419	94.488153990824
90	944.442570209503	94.050999905448
91	949.438571929932	93.613845820073
92	954.356491565704	93.145463324618
93	959.352552890778	92.708309239242
94	964.348554611206	92.302376287989
95	969.344556331635	91.896443336736
96	974.49666261673	91.459289251361
97	979.414641857147	91.053363576066
98	984.410643577576	90.678659034893
99	989.406645298004	90.27272608364
100	994.402647018433	89.866793132387
101	999.398589134216	89.492088591214
102	995.651662349701	88.524102466181
103	990.655660629272	87.93082088232
104	985.581576824188	87.399988842662
105	980.663597583771	86.900385213085
106	975.667595863342	86.432002717629
107	970.671594142914	85.994848632254
108	965.675592422485	85.557694546878
109	960.601508617401	85.120540461503
110	955.683588981628	84.68337910017
111	950.6875872612	84.246225014795
112	945.613503456116	83.871520473622
113	940.617501735687	83.465594798327
114	935.621500015259	83.059661847074
115	930.62549829483	82.684957305901
116	925.629496574402	82.279024354648
117	920.633494853973	81.935548223555
118	915.715515613556	81.560843682382
119	910.641431808472	81.248588685412
120	905.567407608032	80.873884144239
121	900.727510452271	80.499179603066
122	895.575344562531	80.186924606096
123	890.657424926758	79.812220064923
124	885.661423206329	79.499965067953
125	880.665421485901	79.15648893686
126	875.669419765472	78.84423393989
127	870.673418045044	78.500750532839
128	865.677416324615	78.188502811827
129	860.681354999542	77.813798270654
130	855.607330799103	77.532764407806
131	850.611329078674	77.189288276713
132	845.693349838257	76.877033279743
133	840.619266033173	76.564778282773
134	835.545241832733	76.283751695883
135	830.705344676971	75.971496698912
136	825.631260871887	75.62802056782
137	820.635259151459	75.346986704972
138	815.717339515686	75.034738983959
139	810.643255710602	74.722483986989
140	805.569171905518	74.441450124141
141	800.729274749756	74.097973993048
142	795.655250549316	73.816947406158
143	790.737271308899	73.53591354331
144	785.663187503815	73.223665822297
145	780.667185783386	72.911410825327
146	775.671184062958	72.599155828357
147	770.597100257874	72.286900831386
148	765.679180622101	72.005874244496
149	760.605096817017	71.693619247526
150	755.609095096588	71.412592660636
151	750.61309337616	71.100337663665
152	745.695173740387	70.788082666695
153	740.621089935303	70.475827669725
154	735.625088214874	70.163572672755
155	730.55100440979	69.851317675784
156	725.633084774017	69.507841544692
157	720.637023448944	69.226814957801
158	715.641021728516	68.914559960831
159	710.566997528076	68.539855419658
160	705.649018287659	68.258828832768
161	700.65301656723	67.884124291595
162	695.578932762146	67.603090428747
163	690.582931041718	67.259614297655
164	685.665011405945	66.916130890604
165	680.669009685516	66.603883169591
166	675.594925880432	66.260399762541
167	670.598924160004	65.885695221368
168	665.680944919586	65.510990680195
169	660.606920719147	65.167514549103
170	655.610918998718	64.79281000793
171	650.61491727829	64.418105466757
172	645.618855953217	64.043400925584
173	640.700936317444	63.668696384411
174	635.62685251236	63.262763433158
175	630.630850791931	62.856830481906
176	625.556766986847	62.45090480661
177	620.638847351074	62.013750721235
178	615.642845630646	61.607817769982
179	610.724866390228	61.170663684607
180	605.650842189789	60.702281189151
181	600.65484046936	60.265127103776
182	595.580756664276	59.79674460832
183	590.584754943848	59.297137340764
184	585.588753223419	58.828758483287
185	580.670773983002	58.297926443629
186	575.596690177917	57.798319176072
187	570.600688457489	57.298715546494
188	565.52666425705	56.736658734735
189	560.608685016632	56.174598284997
190	555.612683296204	55.643769883318
191	550.616681575775	55.019259889377
192	545.620679855347	54.457203077618
193	540.624678134918	53.832696721656
194	535.550594329834	53.208186727716
195	530.554592609406	52.552455599653
196	525.636613368988	51.896720833611
197	520.64061164856	51.272214477649
198	515.56658744812	50.554030167405
199	510.648608207703	49.929523811443
200	505.652606487274	49.180111091118
201	500.57852268219	48.430702008773
202	495.582550764084	47.712517698528
203	490.586519241333	46.869434299879
204	485.668569803238	46.151249989634
205	480.594515800476	45.370616135187
206	475.598514080048	44.527529098559
207	470.602512359619	43.68444569991
208	465.606480836868	42.872583435383
209	460.61047911644	42.029500036733
210	455.614477396011	41.123963455902
211	450.540393590927	40.312101191375
212	445.544391870499	39.375339838443
213	440.626442432404	38.438578485511
214	435.630440711975	37.53304190468
215	430.556386709213	36.565055779647
216	425.716489553452	35.628294426715
217	420.64243555069	34.660304663703
218	415.568351745605	33.723543310771
219	410.65040230751	32.724332413636
220	405.576348304749	31.725117878523
221	400.658398866653	30.694682209287
222	395.584315061569	29.695469493163
223	390.588313341141	28.633805413847
224	385.592311620712	27.603367925622
225	380.596309900284	26.541703846306
226	375.600308179855	25.448816813878
227	370.604276657104	24.355927962461
228	365.608274936676	23.294263883145
229	360.612273216248	22.138925487525
230	355.538219213486	20.983585272916
231	350.620269775391	19.765795514104
232	345.624268054962	18.579230527394
233	340.628236532211	17.361440768582
234	335.554182529449	16.081199646578
235	330.636233091354	14.769732842979
236	325.640231370926	13.395815585682
237	320.488095283508	11.959447874688
238	315.648198127747	10.491854482098
239	310.574144124985	8.930584954214
240	305.578142404556	7.306864517886
241	303.470432758331	6.588680207642
242	295.664191246033	4.221553354
243	290.746241807938	2.305482666998
244	285.59410572052	0.278565181588
245	280.598104000092	-1.884536004582
246	275.680154561996	-4.186988007859
247	270.762205123901	-6.644625500485
248	265.68815112114	-9.266950655729
249	260.770201683044	-12.0729646369
250	255.69611787796	-15.078503565746
251	250.700116157532	-18.27723281167
252	245.626047253609	-21.694489987567
253	240.786164999008	-25.342940716655
254	235.712096095085	-29.219421776361
255	230.716079473495	-33.352429454681
256	225.720077753067	-37.732472264906
257	220.724076032639	-42.362713429611
258	215.728059411049	-47.249486669898
259	210.73205769062	-52.389623306226
260	205.814108252525	-57.779954659054
261	200.818106532097	-63.414154283237
262	195.900157094002	-69.279551098589
263	190.826088190079	-75.376141467132
264	185.83008646965	-81.697588029783
265	180.834069848061	-88.202723418362
266	175.916135311127	-94.891554908827
267	170.842066407204	-101.754572824575
268	169.983372092247	-103.018224763218
269	169.983372092247	-103.018224763218
270	155.619844794273	-123.527526739053
271	150.623843073845	-130.865490064025
272	145.627841353416	-138.234681799076
273	140.631824731827	-145.666315802373
274	135.635823011398	-153.097964357585
275	130.63982129097	-160.529612912796
276	125.64380466938	-167.898804647848
277	120.569735765457	-175.205539562739
278	115.573726594448	-182.418603799306
279	110.655784606934	-189.569225767627
280	105.581715703011	-196.594934095629
281	100.585706532001	-203.495743335225
282	95.511637628079	-210.240425076336
283	90.593695640564	-216.797765460797
284	85.597686469555	-223.136521526612
285	80.601677298546	-229.287921683863
286	75.605668127537	-235.251965932548
287	70.609666407108	-240.934983594343
288	65.535597503185	-246.399460593238
289	60.6176443398	-251.582852797583
290	55.543575435877	-256.454019108787
291	50.547569990158	-261.106615653262
292	45.629624277353	-265.415699686855
293	40.633615106344	-269.443786237389
294	35.559546202421	-273.159617790952
295	30.563540756702	-276.531936833635
296	25.567531585693	-279.560801573098
297	20.571524277329	-282.33986813575
298	15.575517900288	-284.744222881272
299	10.579511523247	-286.867551039904
300	5.505441688001	-288.584938971326
301	0.587496440858	-290.052528725937
302	-4.408510867506	-291.114207357168
303	-9.404517710209	-291.863601887599
304	-14.478587545455	-292.300770524889
305	-19.396534189582	-292.456883471459
306	-24.470603093505	-292.363227345049
307	-29.466610401869	-291.894830297679
308	-34.462619572878	-291.207892587408
309	-39.380561560392	-290.239899186417
310	-44.454634189606	-289.053336018696
311	-49.450639635325	-287.585746264085
312	-54.524708539248	-285.930786048993
313	-59.442654252052	-284.088484477252
314	-64.438663423061	-282.02761313878
315	-69.43466514349	-279.841828159988
316	-74.430674314499	-277.468701824546
317	-79.426683485508	-274.970690952614
318	-84.422685205936	-272.378965746611
319	-89.340634644032	-269.662356004119
320	-94.492763280869	-266.883289441466
321	-99.410712718964	-264.010566752404
322	-104.406714439392	-261.044158833101
323	-109.480783343315	-258.108979323879
324	-114.476792514324	-255.080114584416
325	-119.472801685333	-252.051249844953
326	-124.468810856342	-249.053613515571
327	-129.464820027351	-245.993520366028
328	-134.46082174778	-242.99586948473
329	-139.456823468208	-239.998233155347
330	-144.452840089798	-236.969368415885
331	-149.448841810226	-234.002945944667
332	-154.522910714149	-231.067766435444
333	-159.440860152245	-228.195029194467
334	-164.436861872673	-225.353520363569
335	-169.432878494263	-222.543239942752
336	-174.428880214691	-219.764173380099
337	-179.502949118614	-217.047563637607
338	-184.420898556709	-214.393410715275
339	-189.416900277138	-211.770471651107
340	-194.490969181061	-209.2099894071
341	-199.408918619156	-206.711963983253
342	-204.482987523079	-204.27638082765
343	-209.400936961174	-201.872026082128
344	-214.475005865097	-199.530113604851
345	-219.392940402031	-197.219444089569
346	-224.467024207115	-194.971216842532
347	-229.463025927544	-192.78543186374
348	-234.459027647972	-190.630889846943
349	-239.455044269562	-188.538790098391
350	-244.45104598999	-186.509132618085
351	-249.447047710419	-184.573160368018
352	-254.364997148514	-182.605959707871
353	-259.439080953598	-180.732429726049
354	-264.51313495636	-178.890142706223
355	-269.431084394455	-177.079069544561
356	-274.427086114883	-175.330438651145
357	-279.501169919968	-173.613050719723
358	-284.575223922729	-171.926876646467
359	-289.493173360825	-170.30315939337
360	-294.489175081253	-168.710655998439
361	-299.485176801682	-167.149395565502
362	-304.403126239777	-165.681791258976
363	-309.477210044861	-164.182973094285
364	-314.473211765289	-162.746611749753
365	-319.391161203384	-161.341464263387
366	-324.465215206146	-159.967545187101
367	-329.461246728897	-158.656082930975
368	-334.457248449326	-157.344620674849
369	-339.375197887421	-156.095600686967
370	-344.449251890183	-154.877809109166
371	-349.523335695267	-153.691245941445
372	-354.441255331039	-152.535911183804
373	-359.359204769135	-151.411790284328
374	-364.433288574219	-150.318912346847
375	-369.429290294647	-149.257248267531
376	-374.503374099731	-148.195584188215
377	-379.421293735504	-147.227590787224
378	-384.495377540588	-146.228383528069
379	-389.413326978683	-145.322846947238
380	-394.409328699112	-144.386081956327
381	-399.483412504196	-143.511773785576
382	-404.401332139969	-142.66867947299
383	-409.475415945053	-141.88805653248
384	-414.471417665482	-141.107419040054
385	-419.389367103577	-140.326781547628
386	-424.541503190994	-139.608600875363
387	-429.459452629089	-138.984090881422
388	-434.455454349518	-138.297124067321
389	-439.451456069946	-137.672628625296
390	-444.447457790375	-137.079347041436
391	-449.443459510803	-136.51727931574
392	-454.439491033554	-135.98645455204
393	-459.435492753983	-135.486843646504
394	-464.509546756744	-135.018461151049
395	-469.427496194839	-134.550078655593
396	-474.423497915268	-134.112924570218
397	-479.419529438019	-133.706998894922
398	-484.415531158447	-133.332287077792
399	-489.567667245865	-132.988818222657
400	-494.485586881638	-132.645334815606
401	-499.403536319733	-132.301851408556
402	-495.656549930573	-129.522799397819
403	-490.660518407822	-127.742954646237
404	-485.664516687393	-126.150451251306
405	-480.590462684631	-124.651633086614
406	-475.672513246536	-123.340170830488
407	-470.754563808441	-122.091150842607
408	-465.758562088013	-120.873359264806
409	-460.684478282928	-119.718024507165
410	-455.6884765625	-118.656360427849
411	-450.614422559738	-117.594696348533
412	-445.696473121643	-116.564260679297
413	-440.622389316559	-115.596274554264
414	-435.704439878464	-114.628281153273
415	-430.630385875702	-113.7227518484
416	-425.712436437607	-112.817215267569
417	-420.638352632523	-111.974128230941
418	-415.72043299675	-111.099812784232
419	-410.646349191666	-110.287954157684
420	-405.650347471237	-109.507323941216
421	-400.576263666153	-108.72668644879
422	-395.65834403038	-107.977277366444
423	-390.662312507629	-107.227868284099
424	-385.666310787201	-106.509680335876
425	-380.670309066772	-105.76027125353
426	-375.674307346344	-105.073311715387
427	-370.678305625916	-104.417580587324
428	-365.76035618782	-103.730621049181
429	-360.686272382736	-103.074889921118
430	-355.690270662308	-102.450379927177
431	-350.616186857224	-101.763420389034
432	-345.620185136795	-101.170138805173
433	-340.7022356987	-100.51440767711
434	-335.706233978271	-99.92112609325
435	-330.554097890854	-99.296616099309
436	-325.636178255081	-98.672113381326
437	-320.64014673233	-98.078824521508
438	-315.644145011902	-97.516771347728
439	-310.648143291473	-96.95471089799
440	-305.730193853378	-96.330208180007
441	-300.656139850616	-95.736926596146
442	-295.582056045532	-95.206094556488
443	-290.664106607437	-94.612812972628
444	-285.668104887009	-94.019524112809
445	-280.67210316658	-93.488692073152
446	-275.676101446152	-92.926638899371
447	-270.680069923401	-92.333357315511
448	-265.606015920639	-91.802525275853
449	-260.688066482544	-91.240464826115
450	-255.692064762115	-90.678411652334
451	-250.618010759354	-90.116351202596
452	-245.621979236603	-89.554298028816
453	-240.625977516174	-89.023465989158
454	-235.629975795746	-88.46140553942
455	-230.633959174156	-87.899352365639
456	-225.716024637222	-87.306070781779
457	-220.641955733299	-86.744010332041
458	-215.64593911171	-86.213178292383
459	-210.649937391281	-85.619896708522
460	-205.653920769691	-85.057843534742
461	-200.735986232758	-84.495783085004
462	-195.58385014534	-83.902501501143
463	-190.743967890739	-83.340441051405
464	-185.591831803322	-82.747159467544
465	-180.673897266388	-82.122656749561
466	-175.677880644798	-81.529367889743
467	-170.603811740875	-80.90486517176
468	-165.607810020447	-80.3115835879
469	-160.689860582352	-79.687073593959
470	-155.615791678429	-79.031342465896
471	-150.619789958	-78.406832471956
472	-145.623773336411	-77.782322478015
473	-140.549704432487	-77.095362939872
474	-135.709822177887	-76.439631811809
475	-130.635753273964	-75.783900683746
476	-125.639751553535	-75.065712735523
477	-120.643742382526	-74.378753197379
478	-115.647733211517	-73.660572525114
479	-110.651724040508	-72.973612986971
480	-105.655714869499	-72.224203904625
481	-100.581645965576	-71.474794822279
482	-95.663703978062	-70.725385739934
483	-90.667694807053	-69.944748247508
484	-85.671685636044	-69.195339165162
485	-80.675683915615	-68.383480538614
486	-75.601615011692	-67.540393501986
487	-70.605605840683	-66.728534875438
488	-65.687656402588	-65.885447838809
489	-60.691654682159	-65.042368078139
490	-55.617585778236	-64.136831497308
491	-50.699640065432	-63.29374446068
492	-45.703634619713	-62.388207879849
493	-40.62956571579	-61.482671299018
494	-35.633556544781	-60.577134718187
495	-30.715612694621	-59.609148593154
496	-25.719605386257	-58.672383602243
497	-20.645534619689	-57.673172705108
498	-15.649527311325	-56.705186580075
499	-10.731582529843	-55.67474727286
500	-5.735575221479	-54.644311603624
501	-0.661505269818	-53.61387229641
502	4.334501922131	-52.614661399275
503	9.408571757376	-51.521772547858
504	14.40457906574	-50.397655286361
505	19.400585442781	-49.367219617125
506	24.318531155586	-48.243105993606
507	29.314536601305	-47.118992370088
508	34.388609230518	-45.963650336489
509	39.384614676237	-44.808311940869
510	44.380623847246	-43.65297354525
511	49.376629292965	-42.46640673955
512	54.372638463974	-41.248618799727
513	59.368643909693	-40.030827221926
514	64.286589622498	-38.781810872024
515	69.360665977001	-37.532794522122
516	74.35666769743	-36.252553400118
517	79.274617135525	-34.941087506013
518	84.426745772362	-33.598396839807
519	89.266628026962	-32.255706173601
520	94.340696930885	-30.881787097314
521	99.336706101894	-29.476645067916
522	104.410775005817	-28.040278266417
523	109.328724443913	-26.541458282736
524	114.324726164341	-25.073864890146
525	119.398795068264	-23.481370590162
526	124.394804239273	-21.920101062278
527	129.312753677368	-20.296380171203
528	134.386822581291	-18.578984963824
