Point	Potential(mV)	Current(microAmp)
1	249.997556209564	16.362228052458
2	254.212945699692	20.327852325863
3	259.286999702454	24.32470137137
4	264.283001422882	28.384003599058
5	269.279003143311	32.380852644565
6	274.275034666061	36.471377825365
7	279.27103638649	40.686805732548
8	284.267038106918	44.902233639732
9	289.263039827347	49.273789045401
10	294.259041547775	53.676569223171
11	299.255073070526	58.266701671528
12	304.329127073288	62.981736846268
13	309.247076511383	67.852895881515
14	314.321160316467	72.880182415247
15	319.317162036896	78.032375313342
16	324.235111474991	83.371916844044
17	329.309165477753	88.836357463151
18	334.305167198181	94.519382400904
19	339.30116891861	100.296078016981
20	344.29720044136	106.322579085827
21	349.293202161789	112.442750832997
22	354.211151599884	118.75028576469
23	359.285205602646	125.213933642954
24	364.281207323074	131.802502437495
25	369.277238845825	138.578398036771
26	374.273240566254	145.447993418202
27	379.269242286682	152.442473336123
28	384.265244007111	159.561866894364
29	389.261245727539	166.743702720851
30	394.25727725029	174.050452187657
31	399.331331253052	181.419643922709
32	404.249280691147	188.820064067841
33	409.323334693909	196.220469661057
34	414.31936621666	203.683346626349
35	419.315367937088	211.146209039725
36	424.311369657516	218.577857594937
37	429.229319095612	225.947049329989
38	434.303373098373	233.25378424488
39	439.299404621124	240.466848481447
40	444.217324256897	247.554999077693
41	449.291408061981	254.518265137449
42	454.28740978241	261.325389146805
43	459.283411502838	267.945171799511
44	464.279413223267	274.377613095567
45	469.275444746017	280.560227110982
46	474.271446466446	286.493072053418
47	479.189395904541	292.207318125293
48	484.341531991959	297.609309200197
49	489.337533712387	302.667816868052
50	494.255483150482	307.414069538936
51	499.329566955566	311.84806721285
52	504.325568675995	315.907382173464
53	509.243488311768	319.560756906867
54	514.239490032196	322.9018766433
55	519.235491752625	325.837056152523
56	524.309575557709	328.366324538365
57	529.305577278137	330.520852003247
58	534.223556518555	332.238269038498
59	539.297580718994	333.580945152789
60	544.293582439423	334.54893855378
61	549.21156167984	335.110991727561
62	554.363667964935	335.329561494291
63	559.281647205353	335.142220137641
64	564.277648925781	334.642623784021
65	569.351732730865	333.76831561327
66	574.269652366638	332.612951751798
67	579.343736171722	331.207818817347
68	584.261655807495	329.521659296006
69	589.335739612579	327.554444083944
70	594.331741333008	325.399887515232
71	599.327743053436	322.99553276971
72	604.245722293854	320.466293487698
73	609.241724014282	317.780912155285
74	614.315748214722	314.939388772473
75	619.233727455139	312.03543767333
76	624.307811260223	309.006572933868
77	629.303812980652	305.915251374245
78	634.377837181091	302.730273688212
79	639.295816421509	299.576495308429
80	644.291818141937	296.391517622396
81	649.287819862366	293.144083116204
82	654.283821582794	289.92784791626
83	659.357905387878	286.742870230228
84	664.353907108307	283.557863440365
85	669.349908828735	280.372885754332
86	674.345910549164	277.281564194709
87	679.263889789581	274.159043328837
88	684.337913990021	271.130178589374
89	689.333915710449	268.132542259991
90	694.251894950867	265.166134340689
91	699.325978755951	262.262154137716
92	704.321980476379	259.420659858733
93	709.317982196808	256.641593296081
94	714.392066001892	253.956211963668
95	719.388067722321	251.270830631256
96	724.384069442749	248.647877015173
97	729.380071163177	246.118637733161
98	734.376072883606	243.651840719394
99	739.293992519379	241.216257563792
100	744.290053844452	238.81190281827
101	749.28605556488	236.501233302988
102	754.36007976532	234.221777645871
103	759.434163570404	232.004778808914
104	764.352142810822	229.818993830122
105	769.34814453125	227.66443726141
106	774.344146251678	225.634794333018
107	779.340147972107	223.605136852711
108	784.336149692535	221.669164602645
109	789.332151412964	219.733192352578
110	794.328153133392	217.828448512591
111	799.324154853821	216.01737535093
112	804.320156574249	214.206302189268
113	809.316158294678	212.457671295851
114	814.390242099762	210.74028336443
115	819.308221340179	209.085337701254
116	824.382245540619	207.430392038077
117	829.378247261047	205.806674784981
118	834.296226501465	204.276628210209
119	839.292228221893	202.715353225358
120	844.366312026978	201.216535060667
121	849.28423166275	199.748945306055
122	854.358315467834	198.343797819689
123	859.354317188263	196.907436475158
124	864.350318908691	195.564745808952
125	869.268298149109	194.222055142745
126	874.342322349548	192.910578334704
127	879.260301589966	191.630344488658
128	884.334325790405	190.350096090697
129	889.40840959549	189.101090654731
130	894.326388835907	187.91452748701
131	899.400413036346	186.696735909209
132	904.318392276764	185.572615009733
133	909.392476081848	184.417280252092
134	914.388477802277	183.324387762696
135	919.384479522705	182.26272368338
136	924.302399158478	181.138617335819
137	929.376482963562	180.076953256503
138	934.37248468399	179.077731445432
139	939.368486404419	178.047295776196
140	944.364488124847	177.04808851704
141	949.360489845276	176.111323526129
142	954.356491565704	175.112116266973
143	959.274470806122	174.206579686143
144	964.348554611206	173.269814695232
145	969.344556331635	172.395506524481
146	974.340558052063	171.48996994365
147	979.336559772491	170.646875631064
148	984.33256149292	169.772567460313
149	989.328563213348	168.929487699643
150	994.402647018433	168.117621797137
151	999.398589134216	167.305770446546
152	999.398589134216	167.274542036466
153	995.651662349701	164.651602972299
154	990.733683109283	163.215241627768
155	985.659599304199	161.966221639886
156	980.663597583771	160.748430062085
157	975.667595863342	159.655537572689
158	970.671594142914	158.593873493373
159	965.675592422485	157.563437824138
160	960.757672786713	156.626687385142
161	955.683588981628	155.658693984151
162	950.6875872612	154.72192899324
163	945.691585540771	153.878849232569
164	940.773606300354	152.942084241658
165	935.621500015259	152.130218339153
166	930.703520774841	151.224681758322
167	925.629496574402	150.444058817811
168	920.711517333984	149.600964505225
169	915.6374335289	148.789113154635
170	910.719513893127	147.977247252129
171	905.645430088043	147.196609759703
172	900.649428367615	146.447200677358
173	895.653426647186	145.697791595012
174	890.657424926758	144.917154102586
175	885.661423206329	144.167745020241
176	880.665421485901	143.418335937895
177	875.591337680817	142.668926855549
178	870.673418045044	142.013203003444
179	865.677416324615	141.295007779263
180	860.681354999542	140.576827106997
181	855.685353279114	139.858646434732
182	850.689351558685	139.140465762466
183	845.693349838257	138.422285090201
184	840.697348117828	137.7353182761
185	835.779428482056	137.079579872079
186	830.705344676971	136.361399199814
187	825.709342956543	135.705675347708
188	820.713341236115	135.018708533607
189	815.717339515686	134.331756271422
190	810.721337795258	133.644789457321
191	805.647253990173	132.957837195136
192	800.651252269745	132.302098791115
193	795.655250549316	131.615146528929
194	790.659189224243	130.928179714829
195	785.663187503815	130.241227452643
196	780.667185783386	129.554260638542
197	775.593161582947	128.867308376357
198	770.675182342529	128.180356114171
199	765.679180622101	127.493389300071
200	760.605096817017	126.806437037885
201	755.687177181244	126.119470223784
202	750.691175460815	125.401289551519
203	745.695173740387	124.714337289333
204	740.699172019959	123.996142065153
205	735.625088214874	123.246732982807
206	730.707108974457	122.559780720621
207	725.633084774017	121.810371638276
208	720.637023448944	121.092183690052
209	715.641021728516	120.342774607707
210	710.645020008087	119.593365525361
211	705.649018287659	118.843956443015
212	700.65301656723	118.063326226547
213	695.657014846802	117.282688734122
214	690.739095211029	116.502051241696
215	685.743093490601	115.690192615148
216	680.590927600861	114.878333988599
217	675.594925880432	114.066475362051
218	670.677006244659	113.192159915343
219	665.680944919586	112.380301288795
220	660.606920719147	111.474764707964
221	655.688941478729	110.600456537213
222	650.61491727829	109.726141090505
223	645.696938037872	108.789383375552
224	640.700936317444	107.883846794721
225	635.62685251236	106.884632259607
226	630.630850791931	105.979095678777
227	625.712931156158	104.979888419621
228	620.71692943573	103.980673884507
229	615.642845630646	102.981459349394
230	610.646843910217	101.919795270078
231	605.650842189789	100.858131190762
232	600.65484046936	99.765245977324
233	595.658779144287	98.672353487928
234	590.662777423859	97.517018730287
235	585.66677570343	96.392905106768
236	580.670773983002	95.237563073169
237	575.596690177917	94.019771495368
238	570.678770542145	92.833208327647
239	565.604686737061	91.584195615724
240	560.608685016632	90.335175627843
241	555.612683296204	89.054934505839
242	550.616681575775	87.743472249713
243	545.698761940002	86.400774307549
244	540.702700614929	85.058083641343
245	535.62867641449	83.684171841014
246	530.632674694061	82.310252764728
247	525.558590888977	80.905112554319
248	520.64061164856	79.43751552375
249	515.56658744812	78.032375313342
250	510.648608207703	76.53355714865
251	505.652606487274	75.034738983959
252	500.656604766846	73.53591354331
253	495.660603046417	72.005874244496
254	490.586519241333	70.475827669725
255	485.668569803238	68.914559960831
256	480.594515800476	67.353292251937
257	475.598514080048	65.760796132963
258	470.602512359619	64.199528424069
259	465.684562921524	62.607032305095
260	460.61047911644	60.98331141402
261	455.614477396011	59.390815295046
262	450.618475675583	57.73586963187
263	445.544391870499	56.143373512896
264	440.626442432404	54.488427849719
265	435.630440711975	52.864706958644
266	430.634438991547	51.240989705548
267	425.638437271118	49.586044042371
268	420.64243555069	47.962323151296
269	415.646433830261	46.338602260221
270	410.572350025177	44.746106141247
271	405.576348304749	43.122385250172
272	400.658398866653	41.498667997075
273	395.662397146225	39.906171878101
274	390.666395425797	38.313675759127
275	385.670363903046	36.721183278132
276	380.596309900284	35.097462387057
277	375.5222260952	33.536191040184
278	370.604276657104	31.943698559189
279	365.608274936676	30.351202440215
280	360.612273216248	28.758708140231
281	355.616271495819	27.197438612348
282	350.542187690735	25.604942493374
283	345.624268054962	23.981223421288
284	340.628236532211	22.357502530213
285	335.632234811783	20.765008230228
286	330.558180809021	19.016386431758
287	325.56214928627	17.361440768582
288	320.644229650497	15.612818970112
289	315.570145845413	13.832970580552
290	310.652196407318	11.990672646789
291	305.578142404556	10.11714903143
292	300.582140684128	8.181174962374
293	295.586109161377	6.089074304327
294	290.668159723282	3.965747509938
295	285.906344652176	1.842421056608
296	285.906344652176	1.842421056608
297	285.906344652176	1.842421056608
298	270.918339490891	-5.289124146657
299	265.922337770462	-8.082470230875
300	261.004388332367	-11.050004104618
301	256.008386611938	-14.210729204933
302	251.012355089188	-17.574146113475
303	246.016353368759	-21.149755411898
304	241.098418831825	-24.959726943052
305	236.024349927902	-29.010394428042
306	231.106400489807	-33.320760849165
307	226.110398769379	-37.903493648628
308	221.192449331284	-42.752260924317
309	216.274499893188	-47.889232519083
310	211.27849817276	-53.308067435864
311	206.28248155117	-59.027777751908
312	201.364547014236	-65.023021306843
313	196.446597576141	-71.315967943519
314	191.528648138046	-77.897115261294
315	186.532646417618	-84.760133177042
316	181.536644697189	-91.8923469726
317	176.5406280756	-99.296936241444
318	174.042627215385	-103.087906609289
319	174.042627215385	-103.087906609289
320	174.042627215385	-103.087906609289
321	174.042627215385	-103.087906609289
322	174.042627215385	-103.087906609289
323	174.042627215385	-103.087906609289
324	140.631824731827	-159.18692224659
325	135.557755827904	-168.367187143303
326	130.63982129097	-177.609894308262
327	125.64380466938	-186.97751511354
328	120.569735765457	-196.438806597143
329	115.573726594448	-205.962554900907
330	110.655784606934	-215.517517062835
331	105.581715703011	-225.134936044924
332	100.585706532001	-234.783583437093
333	95.667764544487	-244.369788561016
334	90.515628457069	-253.987207543105
335	85.675746202469	-263.573398115113
336	80.601677298546	-273.097160970792
337	75.683735311031	-282.55843790248
338	70.609666407108	-291.926058707759
339	65.613657236099	-301.168794976547
340	60.6176443398	-310.349045321345
341	55.621638894081	-319.373182719573
342	50.547569990158	-328.272406477481
343	45.629624277353	-336.984288878739
344	40.633615106344	-345.508829923347
345	35.559546202421	-353.846000507474
346	30.641600489616	-361.964601324871
347	25.645595043898	-369.864632375538
348	20.571524277329	-377.514865249395
349	15.575517900288	-384.946499252692
350	10.579511523247	-392.097106669098
351	5.583504214883	-398.904259782285
352	0.66555920057	-405.52404243499
353	-4.408510867506	-411.769113270566
354	-9.404517710209	-417.670700699091
355	-14.400525018573	-423.260062234476
356	-19.396534189582	-428.537139669061
357	-24.470603093505	-433.439534390345
358	-29.38854880631	-437.998445704579
359	-34.462619572878	-442.151416791603
360	-39.458625018597	-445.929676061496
361	-44.454634189606	-449.302024208009
362	-49.450639635325	-452.330888947472
363	-54.446648806334	-454.953813459724
364	-59.442654252052	-457.139598438516
365	-64.438663423061	-458.981900010258
366	-69.43466514349	-460.449489764869
367	-74.430674314499	-461.47993998602
368	-79.348616302013	-462.135678390041
369	-84.500752389431	-462.416704976931
370	-89.418694376946	-462.291791336611
371	-94.414703547955	-461.823423393071
372	-99.410712718964	-461.01154293865
373	-104.406714439392	-459.824979770929
374	-109.402723610401	-458.326161606237
375	-114.476792514324	-456.546316854656
376	-119.394741952419	-454.391760285944
377	-124.468810856342	-452.018633950502
378	-129.464820027351	-449.395709438249
379	-134.382754564285	-446.522986749187
380	-139.456823468208	-443.400436779484
381	-144.452840089798	-440.059317043051
382	-149.370789527893	-436.562084360048
383	-154.366791248322	-432.846252806485
384	-159.440860152245	-429.036765126511
385	-164.436861872673	-425.039906986058
386	-169.432878494263	-421.011820435524
387	-174.428880214691	-416.8588493485
388	-179.42488193512	-412.612193031237
389	-184.420898556709	-408.334308303893
390	-189.494967460632	-404.056452680379
391	-194.490969181061	-399.653654312715
392	-199.48698580265	-395.282113458961
393	-204.482987523079	-390.879315091297
394	-209.478989243507	-386.539002647623
395	-214.475005865097	-382.167432690039
396	-219.392940402031	-377.858348656446
397	-224.388957023621	-373.549235519022
398	-229.463025927544	-369.302579201758
399	-234.459027647972	-365.118379704654
400	-239.455044269562	-360.965408617631
401	-244.372978806496	-356.843665940687
402	-249.368995428085	-352.878036210313
403	-254.443049430847	-348.88117806986
404	-259.439080953598	-344.978005159646
405	-264.435082674026	-341.137289069593
406	-269.431084394455	-337.390229105949
407	-274.427086114883	-333.736854372546
408	-279.423087835312	-330.145936459303
409	-284.419119358063	-326.55501854606
410	-289.493173360825	-323.089014273137
411	-294.489175081253	-319.685437716544
412	-299.407124519348	-316.375546390191
413	-304.403126239777	-313.128111883998
414	-309.399127960205	-309.974333504215
415	-314.473211765289	-306.851812638342
416	-319.469213485718	-303.7917194888
417	-324.465215206146	-300.794083159417
418	-329.461246728897	-297.952559776604
419	-334.37916636467	-295.079837087542
420	-339.453250169754	-292.300770524889
421	-344.449251890183	-289.584160782397
422	-349.445253610611	-286.992464680225
423	-354.441255331039	-284.369511064142
424	-359.43728685379	-281.87150019221
425	-364.433288574219	-279.373460216448
426	-369.429290294647	-277.000333881006
427	-374.425292015076	-274.689635261893
428	-379.421293735504	-272.378965746611
429	-384.417325258255	-270.193180767819
430	-389.491379261017	-268.038653302938
431	-394.409328699112	-265.915325144306
432	-399.40533041954	-263.854453805834
433	-404.479414224625	-261.887238593772
434	-409.39736366272	-259.95125179179
435	-414.393365383148	-258.046522503719
436	-419.46741938591	-256.204220931977
437	-424.385368824005	-254.486833000556
438	-429.459452629089	-252.738187555224
439	-434.455454349518	-251.083256443962
440	-439.373403787613	-249.490753049031
441	-444.369405508041	-247.960706474259
442	-449.521541595459	-246.399460593238
443	-454.439491033554	-244.994298554957
444	-459.435492753983	-243.589151068591
445	-464.431494474411	-242.277674260549
446	-469.427496194839	-240.997440414503
447	-474.501579999924	-239.748420426622
448	-479.419529438019	-238.561857258901
449	-484.415531158447	-237.43775091134
450	-489.411532878876	-236.407300690189
451	-494.407534599304	-235.345636610873
452	-499.481618404388	-234.377657761797
453	-495.656549930573	-228.663411689922
454	-490.660518407822	-225.478419451974
455	-485.664516687393	-222.668139031157
456	-480.668514966965	-220.10765678715
457	-475.672513246536	-217.734530451708
458	-470.754563808441	-215.45507479459
459	-465.758562088013	-213.331746635959
460	-460.606426000595	-211.270860745572
461	-455.610424280167	-209.334888495505
462	-450.692474842072	-207.398916245438
463	-445.696473121643	-205.587843083777
464	-440.700471401215	-203.807998332195
465	-435.704439878464	-202.059381990694
466	-430.708438158035	-200.373207917437
467	-425.712436437607	-198.71826225426
468	-420.716434717178	-197.125758859329
469	-415.72043299675	-195.564498426393
470	-410.646349191666	-194.034451851621
471	-405.728399753571	-192.53563368693
472	-400.654345750809	-191.099272342399
473	-395.65834403038	-189.662896445952
474	-390.740394592285	-188.257748959586
475	-385.744392871857	-186.883844435215
476	-380.670309066772	-185.509925358929
477	-375.674307346344	-184.198448550887
478	-370.678305625916	-182.855757884681
479	-365.682274103165	-181.575524038635
480	-360.686272382736	-180.264061782509
481	-355.612218379974	-179.015041794628
482	-350.694268941879	-177.766021806747
483	-345.698267221451	-176.485787960701
484	-340.7022356987	-175.2679963829
485	-335.706233978271	-174.050204805098
486	-330.710232257843	-172.832413227297
487	-325.714230537415	-171.645850059576
488	-320.64014673233	-170.428058481775
489	-315.722227096558	-169.272723724134
490	-310.648143291473	-168.086146004498
491	-305.652141571045	-166.930811246857
492	-300.656139850616	-165.744248079136
493	-295.660108327866	-164.557684911415
494	-290.664106607437	-163.371121743694
495	-285.668104887009	-162.247000844218
496	-280.750155448914	-161.060437676497
497	-275.676101446152	-159.936331328936
498	-270.680069923401	-158.78098201938
499	-265.684068202972	-157.625647261739
500	-260.688066482544	-156.439084094018
501	-255.692064762115	-155.283749336377
502	-250.618010759354	-154.097171616741
503	-245.621979236603	-152.9418368591
504	-240.782096982002	-151.786502101459
505	-235.708028078079	-150.568710523658
506	-230.712026357651	-149.382147355936
507	-225.637957453728	-148.22679804638
508	-220.641955733299	-147.009021020494
509	-215.64593911171	-145.791229442693
510	-210.649937391281	-144.604666274972
511	-205.653920769691	-143.386874697171
512	-200.657919049263	-142.13785470929
513	-195.661917328835	-140.888834721409
514	-190.587848424911	-139.671043143608
515	-185.669898986816	-138.390809297562
516	-180.673897266388	-137.1105608996
517	-175.677880644798	-135.799098643474
518	-170.68187892437	-134.518864797428
519	-165.68586230278	-133.207387989387
520	-160.689860582352	-131.864697323181
521	-155.615791678429	-130.522006656975
522	-150.697842240334	-129.148087580688
523	-145.701840519905	-127.805396914482
524	-140.705838799477	-126.369035569951
