Point	Potential(mV)	Current(microAmp)
1	249.997556209564	21.889121853747
2	254.056811332703	26.229450668325
3	259.130865335464	30.725906981388
4	264.126896858215	35.253589885542
5	269.044816493988	39.874947106
6	273.962765932083	44.527529098559
7	279.036849737167	49.148886319017
8	284.110903739929	53.957595810061
9	289.028853178024	58.984885981772
10	294.024854898453	64.137071603909
11	299.098938703537	69.445392000489
12	304.016888141632	74.784933531191
13	309.090942144394	80.405501648784
14	314.008891582489	86.275875219144
15	319.082975387573	92.333604698069
16	324.000924825668	98.578682809603
17	329.07497882843	104.917431599461
18	334.149062633514	111.474764707964
19	339.145064353943	118.40680235764
20	344.063013792038	125.557417050004
21	349.059015512466	132.801709696651
22	354.055017232895	140.233343699947
23	359.051018953323	147.821119753644
24	364.047020673752	155.752364662476
25	369.043052196503	163.870965479873
26	374.039053916931	172.114479937591
27	379.113107919693	180.482878931798
28	384.031057357788	189.069862244651
29	389.027059078217	197.812973055989
30	394.023060798645	206.774653634056
31	399.097144603729	215.798791032284
32	404.093146324158	224.822928430513
33	409.011095762253	234.003193327226
34	414.085179567337	243.339585722424
35	419.00309920311	252.738420385867
36	424.077183008194	262.168498011306
37	429.151237010956	271.473661996424
38	434.069186449051	280.841282801703
39	439.065217971802	290.271331323311
40	444.06121969223	299.638952128589
41	449.135273694992	308.912887703627
42	454.053223133087	318.030710332096
43	459.049224853516	327.023619320244
44	464.045226573944	336.047756718472
45	469.119310379028	344.82209593989
46	474.037259817123	353.409064700827
47	479.111313819885	361.715035978705
48	484.02926325798	369.771179975942
49	489.103347063065	377.733667846769
50	494.099348783493	385.321414796636
51	499.095380306244	392.628164263442
52	504.013299942017	399.528973503038
53	509.087383747101	406.055070925504
54	514.005303382874	412.36259858124
55	519.001305103302	418.326671933755
56	524.075388908386	423.79109072499
57	529.071390628815	428.755942266434
58	534.067392349243	433.314853580669
59	538.985371589661	437.592738308012
60	544.0593957901	441.402225987986
61	549.055397510529	444.680888904259
62	554.129481315613	447.428727056831
63	559.125483036041	449.770624982193
64	564.043462276459	451.737840194255
65	569.039463996887	453.236658358946
66	574.035465717316	454.235851066187
67	579.1095495224	454.735476523638
68	584.027469158173	454.797904239967
69	589.023470878601	454.579334473237
70	594.01947259903	453.954824479297
71	599.093556404114	452.893174951896
72	604.011535644531	451.394356787205
73	609.085559844971	449.552055215463
74	614.159643650055	447.491183876991
75	619.077563285828	445.180485257879
76	624.073624610901	442.526332335547
77	629.14764881134	439.559924416244
78	634.065628051758	436.343718320131
79	639.061629772186	433.096283813939
80	644.135713577271	429.661478847265
81	649.131715297699	426.008104113862
82	654.127717018127	422.167388023809
83	659.123718738556	418.232986703515
84	664.119720458984	414.361042203382
85	669.115722179413	410.395412473008
86	674.03370141983	406.304898206145
87	679.10772562027	402.151898015291
88	684.103727340698	397.998926928267
89	689.099729061127	393.939641071483
90	694.0957903862	389.88032611087
91	699.091792106628	385.821040254086
92	704.165816307068	381.668040063232
93	709.083795547485	377.639982616529
94	714.15787935257	373.736809706315
95	719.075798988342	369.896093616262
96	724.149882793427	366.024120012298
97	729.067802429199	362.152175512165
98	734.141886234283	358.342687832192
99	739.059805870056	354.720541508868
100	744.13388967514	351.160852005705
101	749.129891395569	347.601162502542
102	754.125893115997	344.041472999379
103	759.121894836426	340.637896442786
104	764.117956161499	337.390461936593
105	769.113957881927	334.14299832657
106	774.109959602356	330.958020640537
107	779.183983802795	327.710586134344
108	784.180045127869	324.681721394882
109	789.176046848297	321.715313475579
110	794.09396648407	318.842561682686
111	799.168050289154	315.969838993624
112	804.164052009583	313.097087200731
113	809.081971645355	310.318049741909
114	814.156055450439	307.726324535906
115	819.074034690857	305.134628433734
116	824.226140975952	302.574131637812
117	829.144060611725	300.01366394572
118	834.062039852142	297.546852380037
119	839.214146137238	295.204954454675
120	844.132125377655	292.894255835563
121	849.128127098084	290.614814730361
122	854.202210903168	288.304145215079
123	859.12013053894	286.087131826207
124	864.116132259369	284.026260487735
125	869.190216064453	281.902932329103
126	874.186217784882	279.904517810792
127	879.104137420654	277.84361736849
128	884.178221225739	275.813974440098
129	889.174222946167	273.971672868356
130	894.170224666595	272.129371296614
131	899.088203907013	270.255870418623
132	904.162287712097	268.413568846881
133	909.158289432526	266.60249568522
134	914.154291152954	264.916307060048
135	919.150292873383	263.230147538707
136	924.146294593811	261.543988017365
137	929.064214229584	259.857799392194
138	934.138298034668	258.234096691012
139	939.134299755096	256.766506936401
140	944.130301475525	255.298888077959
141	949.126303195953	253.768841503188
142	954.200387001038	252.207595622167
143	959.118366241455	250.740005867556
144	964.192390441895	249.366072239354
145	969.110369682312	248.054595431313
146	974.262475967407	246.649462496862
147	979.180455207825	245.275557972491
148	984.176456928253	243.932867306285
149	989.172458648682	242.715075728483
150	994.16846036911	241.466070292518
151	999.164462089539	240.217050304636
152	995.963871479034	235.970393987373
153	990.967869758606	233.628496062011
154	986.049950122833	231.723737670109
155	981.053948402405	229.912664508447
156	975.979864597321	228.257718845271
157	970.983862876892	226.540330913849
158	965.987861156464	224.916613660753
159	960.991859436035	223.449009354226
160	955.995857715607	222.012648009695
161	950.921773910522	220.576286665164
162	945.925772190094	219.139910768718
163	941.007792949677	217.734763282351
164	935.933768749237	216.454529436305
165	930.937707424164	215.174281038344
166	926.019787788391	213.894047192298
167	920.945703983307	212.582584936172
168	915.949702262878	211.27110812813
169	910.95370054245	210.115773370489
170	905.879616737366	208.960438612849
171	900.961697101593	207.742647035047
172	895.965695381165	206.556083867326
173	891.047716140747	205.307063879445
174	885.973691940308	204.245399800129
175	880.977690219879	203.152507310733
176	875.981628894806	201.997172553092
177	870.985627174377	200.841837795451
178	865.989625453949	199.65527462773
179	860.993623733521	198.624824406579
180	855.919539928436	197.594388737343
181	851.001620292664	196.470282389782
182	846.005618572235	195.346161490306
183	841.009616851807	194.25326900091
184	836.013615131378	193.222833331674
185	830.939531326294	192.192397662438
186	826.021611690521	191.099505173042
187	820.947527885437	190.006627235562
188	815.951526165009	188.913734746166
189	810.95552444458	187.85207066685
190	805.959463119507	186.884077265859
191	801.041543483734	185.822427738458
192	796.045541763306	184.698306838982
193	791.049540042877	183.542972081341
194	785.897374153137	182.57497868035
195	780.979454517365	181.575771421194
196	775.983452796936	180.482878931798
197	770.987451076508	179.327544174157
198	765.913367271423	178.203423274681
199	760.917365550995	177.172987605445
200	755.921363830566	176.111323526129
201	750.925362110138	175.018431036733
202	745.929360389709	173.831867869012
203	740.933358669281	172.707761521451
204	736.015379428864	171.614869032055
205	730.863273143768	170.521976542659
206	725.945293903351	169.366641785018
207	720.949292182922	168.148850207217
208	715.953290462494	166.899830219336
209	710.957288742065	165.775723871775
210	705.961287021637	164.620374562219
211	700.887203216553	163.402597536333
212	695.891201496124	162.122349138372
213	690.973281860352	160.810886882246
214	685.977280139923	159.593095304444
215	681.059300899506	158.344075316563
216	675.90719461441	157.063841470517
217	670.989215373993	155.658693984151
218	665.993213653564	154.284774907865
219	660.91912984848	152.973312651739
220	656.001210212708	151.599393575452
221	650.927126407623	150.194246089086
222	646.009206771851	148.695427924395
223	640.935122966766	147.165381349623
224	635.939121246338	145.760248415172
225	630.943119525909	144.292658660561
226	626.025140285492	142.762612085789
227	620.873034000397	141.138880280778
228	615.955114364624	139.452720759436
229	610.88103055954	137.922674184665
230	605.963051319122	136.330170789734
231	600.889027118683	134.644011268392
232	595.971047878265	132.864151964895
233	590.975046157837	131.084307213314
234	585.900962352753	129.398133140057
235	580.98304271698	127.680745208636
236	575.908958911896	125.807215226814
237	570.912957191467	123.933699796908
238	565.995037555695	121.997720270883
239	560.842871665955	120.155425975099
240	555.924952030182	118.250674859155
241	551.006972789764	116.345923743211
242	545.932948589325	114.253823994659
243	540.936887264252	112.22417379031
244	535.862863063812	110.22575199604
245	530.944883823395	108.227322925813
246	525.948882102966	106.166451587342
247	520.952880382538	103.980673884507
248	515.956878662109	101.794896181673
249	510.882794857025	99.734017567243
250	505.964875221252	97.641917818692
251	500.968873500824	95.456140115857
252	495.89478969574	93.20791286882
253	490.898787975311	90.990906755906
254	485.824704170227	88.867585873231
255	480.906754732132	86.650579760317
256	475.910753011703	84.43358092336
257	470.992803573608	82.154125266243
258	465.918749570847	79.905898019206
259	460.922747850418	77.688891906291
260	455.926716327667	75.534342613537
261	450.930714607239	73.317336500622
262	445.93471288681	70.97543857526
263	440.860629081726	68.758432462346
264	435.942709445953	66.603883169591
265	430.946677923203	64.48055501096
266	425.950676202774	62.294777308125
267	420.876622200012	60.046550061088
268	415.958672761917	57.860772358254
269	410.962671041489	55.768668971723
270	405.96666932106	53.707793995272
271	400.892585515976	51.584469474619
272	395.896583795547	49.429916543886
273	390.900582075119	47.369041567436
274	385.904550552368	45.339391363086
275	380.90854883194	43.372190702939
276	375.912547111511	41.34254049859
277	370.916545391083	39.28166552214
278	365.920543670654	37.25201531779
279	360.924512147903	35.347264201846
280	355.928510427475	33.442516723881
281	350.854456424713	31.444091291633
282	345.858454704285	29.414441087283
283	340.94050526619	27.447240427136
284	335.944503545761	25.542492949171
285	330.94847202301	23.637743652216
286	325.952470302582	21.639318219968
287	320.956468582153	19.515991880326
288	315.882384777069	17.455116903875
289	310.964465141296	15.456691471627
290	305.968433618546	13.33336422249
291	300.894379615784	11.14758742915
292	295.898377895355	8.743232683628
293	290.902376174927	6.370102710207
294	285.906344652176	3.934522283089
295	280.910342931747	1.436490947526
296	275.992393493652	-1.311343339694
297	270.840257406235	-4.215304670652
298	269.747406244278	-4.839812390856
299	269.747406244278	-4.839812390856
300	269.747406244278	-4.839812390856
301	269.747406244278	-4.839812390856
302	269.747406244278	-4.839812390856
303	241.800978779793	-23.981105186977
304	236.72690987587	-28.180626031826
305	231.808960437775	-32.598669349682
306	226.812958717346	-37.25741407834
307	221.973076462746	-42.226529330947
308	217.055127024651	-47.509183787042
309	212.059125304222	-53.06737148203
310	207.063108682632	-58.888424973702
311	202.145174145699	-64.994521380868
312	197.227224707603	-71.429982199334
313	192.309275269508	-78.188488259912
314	187.391340732574	-85.232022684068
315	182.395324110985	-92.538430180866
316	177.477389574051	-100.129873317201
317	175.681948661804	-103.08473429177
318	175.681948661804	-103.08473429177
319	175.681948661804	-103.08473429177
320	175.681948661804	-103.08473429177
321	175.681948661804	-103.08473429177
322	175.681948661804	-103.08473429177
323	175.681948661804	-103.08473429177
324	175.681948661804	-103.08473429177
325	175.681948661804	-103.08473429177
326	175.681948661804	-103.08473429177
327	120.881989598274	-203.776769922115
328	115.885980427265	-214.143597986549
329	110.889971256256	-224.510426050983
330	105.893969535828	-234.939710935578
331	100.897960364819	-245.493924012408
332	95.90195119381	-256.204220931977
333	90.9059420228	-266.976974671707
334	85.909940302372	-277.624843874946
335	80.913931131363	-288.272683974355
336	75.917921960354	-298.983009997755
337	70.921912789345	-309.724535327405
338	65.925911068916	-320.497289067134
339	60.851830989122	-331.082701450214
340	55.933889001608	-341.574428603053
341	50.859820097685	-352.066155755892
342	45.785751193762	-362.526683602482
343	40.945868939161	-372.893497115001
344	35.871796309948	-382.97931314446
345	30.875790864229	-392.971414839849
346	25.957845151424	-402.869889512658
347	20.883776247501	-412.643421441317
348	15.887768939138	-422.229612013325
349	10.891761630774	-431.472348282114
350	5.89575432241	-440.558913396671
351	0.821684254333	-449.45816625841
352	-4.096260294318	-458.170048659667
353	-9.0142050758	-466.632132884115
354	-14.088274911046	-474.688276881352
355	-19.162345677614	-482.400937471539
356	-24.080289527774	-489.926256705076
357	-29.076296836138	-497.201806865633
358	-34.072306007147	-504.102616105229
359	-39.068311452866	-510.535028297454
360	-44.064320623875	-516.65521459654
361	-49.138389527798	-522.431917488575
362	-54.134394973517	-527.95879309997
363	-59.130404144526	-533.017329871655
364	-64.204469323158	-537.607411388308
365	-69.122411310673	-541.760411579162
366	-74.118420481682	-545.538670849055
367	-79.114429652691	-549.035903532058
368	-84.1104388237	-552.033539861441
369	-89.106440544128	-554.562837351114
370	-94.180516898632	-556.561222765595
371	-99.176518619061	-558.309897314757
372	-104.094468057156	-559.621315915138
373	-109.090469777584	-560.526852495968
374	-114.164546132088	-560.839136596769
375	-119.160547852516	-560.776679776609
376	-124.23462420702	-560.370739549398
377	-129.152566194534	-559.590116608888
378	-134.148567914963	-558.466010261327
379	-139.144584536552	-556.873506866395
380	-144.218653440475	-554.875063244253
381	-149.136587977409	-552.564393728971
382	-154.132604598999	-550.09761126712
383	-159.128606319427	-547.224830370396
384	-164.202675223351	-543.946167454124
385	-169.120624661446	-540.448934771121
386	-174.116626381874	-536.733132321388
387	-179.190695285797	-532.892416231334
388	-184.186711907387	-528.770673554391
389	-189.104646444321	-524.399103596807
390	-194.10066306591	-519.808963872492
391	-199.096664786339	-515.187624841928
392	-204.170733690262	-510.503770783544
393	-209.088683128357	-505.695061292499
394	-214.16275203228	-500.699039548635
395	-219.158753752708	-495.609303470701
396	-224.154770374298	-490.550766699016
397	-229.150772094727	-485.492259031162
398	-234.146788716316	-480.464979773387
399	-239.142790436745	-475.250330055133
400	-244.216859340668	-470.098137157038
401	-249.134808778763	-465.008401079103
402	-254.130810499191	-459.981121821329
403	-259.204894304276	-455.047498689964
404	-264.200896024704	-449.98899102211
405	-269.196897745132	-445.024139480665
406	-274.192899465561	-440.121773863211
407	-279.188901185989	-435.406720498577
408	-284.106850624084	-430.691696237773
409	-289.180934429169	-425.945443566889
410	-294.176936149597	-421.292847022414
411	-299.172937870026	-416.79639252834
412	-304.168939590454	-412.456080084667
413	-309.164941310883	-408.146966947243
414	-314.160972833633	-403.806625399739
415	-319.156974554062	-399.559998186305
416	-324.15297627449	-395.438226405531
417	-329.148977994919	-391.535053495318
418	-334.223061800003	-387.600652175024
419	-339.141011238098	-383.666250854731
420	-344.137012958527	-379.856763174757
421	-349.133014678955	-376.172160031274
422	-354.207068681717	-372.643698938191
423	-359.125018119812	-369.146466255188
424	-364.12101984024	-365.617976058275
425	-369.195103645325	-362.214428605512
426	-374.191105365753	-358.904537279159
427	-379.187107086182	-355.781987309456
428	-384.183138608933	-352.690665749833
429	-389.179140329361	-349.53691647388
430	-394.097089767456	-346.539280144498
431	-399.171143770218	-343.635299941525
432	-404.089093208313	-340.825034072623
433	-409.163177013397	-338.13965274021
434	-414.159178733826	-335.360586177558
435	-419.155180454254	-332.706433255225
436	-424.229234457016	-330.177164869383
437	-429.147183895111	-327.772810123861
438	-434.14318561554	-325.337226968259
439	-439.217269420624	-322.995329042897
440	-444.135218858719	-320.653431117535
441	-449.131220579147	-318.498874548823
442	-454.127222299576	-316.406774800271
443	-459.20130610466	-314.408360281959
444	-464.197307825089	-312.347459839657
445	-469.193309545517	-310.380273731425
446	-474.189311265945	-308.537972159684
447	-479.185312986374	-306.820584228262
448	-484.181344509125	-305.134395603091
449	-489.177346229553	-303.417007671669
450	-494.173347949982	-301.793275866658
451	-499.16934967041	-300.263258395717
452	-496.046841144562	-292.331998934969
453	-490.9727871418	-287.898001261055
454	-485.976785421371	-284.026027657092
455	-480.980753898621	-280.528794974089
456	-476.062834262848	-277.281360467896
457	-470.988750457764	-274.346180958673
458	-466.070801019669	-271.473429165781
459	-460.918664932251	-268.663163296878
460	-456.000745296478	-266.008981270716
461	-451.004713773727	-263.448513578624
462	-446.008712053299	-261.012930423021
463	-441.01271033287	-258.671032497659
464	-435.938626527786	-256.297906162217
465	-431.020706892014	-253.987207543105
466	-425.946623086929	-251.770223258063
467	-421.028673648834	-249.709351919591
468	-416.032671928406	-247.648451477289
469	-411.036670207977	-245.493924012408
470	-405.88453412056	-243.433023570105
471	-400.888532400131	-241.465822909959
472	-396.04863524437	-239.592292928137
473	-391.052633523941	-237.71877749823
474	-386.056631803513	-235.814019106328
475	-380.982547998428	-233.909275266342
476	-375.986546278	-232.0669736946
477	-370.990544557571	-230.380799621344
478	-366.072595119476	-228.663411689922
479	-360.998541116714	-226.7898817081
480	-355.92445731163	-225.041265366599
481	-350.928455591202	-223.323862883262
482	-346.010506153107	-221.731374040246
483	-341.014504432678	-220.10765678715
484	-336.01850271225	-218.296583625488
485	-330.944418907166	-216.641637962312
486	-326.02646946907	-214.986692299135
487	-321.030467748642	-213.394188904203
488	-315.95641374588	-211.832928471267
489	-310.960382223129	-210.146754398011
490	-305.964380502701	-208.460580324754
491	-300.890326499939	-206.868091481738
492	-295.972377061844	-205.338044906966
493	-290.976375341415	-203.745541512035
494	-285.980343818665	-202.090595848858
495	-280.906289815903	-200.435650185682
496	-275.910288095474	-198.843161342666
497	-270.992338657379	-197.313114767894
498	-265.918254852295	-195.720625924878
499	-261.000335216522	-194.065680261701
500	-256.004303693771	-192.410734598525
501	-251.008301973343	-190.787017345428
502	-246.012300252914	-189.256970770657
503	-240.938231348991	-187.664467375726
504	-236.020281910896	-185.947079444304
505	-230.946213006973	-184.229676960967
506	-225.950211286545	-182.605959707871
507	-220.954194664955	-181.04468472302
508	-215.958192944527	-179.389739059843
509	-210.962191224098	-177.641122718342
510	-205.966174602509	-175.89250637684
511	-200.97017288208	-174.206332303584
512	-195.97415626049	-172.551386640407
513	-190.900087356567	-170.865212567151
514	-185.982152819633	-169.054139405489
515	-180.986136198044	-167.211837833747
516	-175.990134477615	-165.463221492246
517	-170.916065573692	-163.714605150744
518	-165.998116135597	-161.934745847248
519	-161.002114415169	-160.061230417341
520	-155.928045511246	-158.125258167274
521	-151.010096073151	-156.282956595533
522	-146.014094352722	-154.471883433871
523	-140.940025448799	-152.598353452049
524	-136.022076010704	-150.568710523658
